# wavelength,transmittance,std
6.300000000000000000e+02,8.066695107452061830e-06,6.396811074214394906e-04
6.310000000000000000e+02,7.761047499768083054e-06,3.755131169614465037e-04
6.320000000000000000e+02,8.093412714842958342e-06,3.120476524086302958e-04
6.330000000000000000e+02,8.192458406002661392e-06,3.554766326548573991e-04
6.340000000000000000e+02,8.588688559451534770e-06,3.561863092100633508e-04
6.350000000000000000e+02,9.137516989889379383e-06,4.191140246479061111e-04
6.360000000000000000e+02,8.840900647937968544e-06,4.113294533484311067e-04
6.370000000000000000e+02,9.240190692547593004e-06,4.264014327112208304e-04
6.380000000000000000e+02,9.024164493190356873e-06,4.277023415055065101e-04
6.390000000000000000e+02,9.422696407848296508e-06,4.163331998932266048e-04
6.400000000000000000e+02,1.098177088069306086e-05,5.160064207571707015e-04
6.410000000000000000e+02,1.138209647117039450e-05,5.016135580465918295e-04
6.420000000000000000e+02,1.248134535598791033e-05,4.902071300001972299e-04
6.430000000000000000e+02,1.373758716001699698e-05,4.229525846816507904e-04
6.440000000000000000e+02,1.515252522134322208e-05,2.972941950052815927e-04
6.450000000000000000e+02,1.632834554209069885e-05,3.333333333333333222e-04
6.460000000000000000e+02,1.872744243424554641e-05,4.943110704237103654e-04
6.470000000000000000e+02,2.181983109273726213e-05,4.191140246479062195e-04
6.480000000000000000e+02,2.408375831894178916e-05,3.623715376697393014e-04
6.490000000000000000e+02,2.868303156691403666e-05,4.648231987117318071e-04
6.500000000000000000e+02,3.423471017539240195e-05,4.923659639173308617e-04
6.510000000000000000e+02,4.131822426037972290e-05,5.025189076296061050e-04
6.520000000000000000e+02,5.103703311845741845e-05,4.988876515698588811e-04
6.530000000000000000e+02,6.297241990054236211e-05,3.711842908553345975e-04
6.540000000000000000e+02,7.993375108870184886e-05,4.399265319747755259e-04
6.550000000000000000e+02,1.025938168903648258e-04,3.834979883528820714e-04
6.560000000000000000e+02,1.332216509203379385e-04,3.013437917198239554e-04
6.570000000000000000e+02,1.725253935162082317e-04,4.604565147983050426e-04
6.580000000000000000e+02,2.240644984448006264e-04,5.198095999517714054e-04
6.590000000000000000e+02,2.911905670993579064e-04,5.904116009919343827e-04
6.600000000000000000e+02,3.750361702543535082e-04,6.043612539305659014e-04
6.610000000000000000e+02,4.817981860488950102e-04,7.571210756756967513e-04
6.620000000000000000e+02,6.177134991764275012e-04,8.703302519588461449e-04
6.630000000000000000e+02,7.924592263203719721e-04,1.044465935734183778e-03
6.640000000000000000e+02,1.018320855253216847e-03,1.377268560183049538e-03
6.650000000000000000e+02,1.319963110505967393e-03,1.798175281621440958e-03
6.660000000000000000e+02,1.726161596278745275e-03,2.384715640672634661e-03
6.670000000000000000e+02,2.289565754622602603e-03,3.091924966748063781e-03
6.680000000000000000e+02,3.081414955425782962e-03,3.940004614671966526e-03
6.690000000000000000e+02,4.158300273163621254e-03,5.043247310448247672e-03
6.700000000000000000e+02,5.589270827433096347e-03,6.669514543235086773e-03
6.710000000000000000e+02,7.488903978831653631e-03,8.972117302448089082e-03
6.720000000000000000e+02,9.928841766424006607e-03,1.172897215781446706e-02
6.730000000000000000e+02,1.306518079783583995e-02,1.512406604512733614e-02
6.740000000000000000e+02,1.707891907669547432e-02,1.925470951180095411e-02
6.750000000000000000e+02,2.212691446459795139e-02,2.379755526022869078e-02
6.760000000000000000e+02,2.832539392370150497e-02,2.823762623439756217e-02
6.770000000000000000e+02,3.592434455048221925e-02,3.327236242003414612e-02
6.780000000000000000e+02,4.495907310569818155e-02,3.992899758928149245e-02
6.790000000000000000e+02,5.534584961847494738e-02,4.814607822538452542e-02
6.800000000000000000e+02,6.733329172001574492e-02,5.817705125673945654e-02
6.810000000000000000e+02,8.128365662755562826e-02,6.928257101511642313e-02
6.820000000000000000e+02,9.710606904036876708e-02,8.226381496457146891e-02
6.830000000000000000e+02,1.150376461344083945e-01,9.754568781920197607e-02
6.840000000000000000e+02,1.350211716882592505e-01,1.152681068841094475e-01
6.850000000000000000e+02,1.565900533489556490e-01,1.351920952802440345e-01
6.860000000000000000e+02,1.795568986009876133e-01,1.563072275806188516e-01
6.870000000000000000e+02,1.543453999069558102e-01,1.765672936642546098e-01
6.880000000000000000e+02,2.006231932161158249e-01,1.942849110627653531e-01
6.890000000000000000e+02,2.205461779094755603e-01,2.078733246256220524e-01
6.900000000000000000e+02,2.640520070529441266e-01,2.162964788610229616e-01
6.910000000000000000e+02,2.895656206760855444e-01,2.191347207965587407e-01
6.920000000000000000e+02,3.318246792670536127e-01,2.147563486673428890e-01
6.930000000000000000e+02,3.647391297514653297e-01,2.017346051352886804e-01
6.940000000000000000e+02,3.931522128288891249e-01,1.813238143669100022e-01
6.950000000000000000e+02,4.219908018489592627e-01,1.611275581643311916e-01
6.960000000000000000e+02,4.481576189059800486e-01,1.468253219016227851e-01
6.970000000000000000e+02,4.773933030918750542e-01,1.421966979542458043e-01
6.980000000000000000e+02,5.010401640652433208e-01,1.462295428151204613e-01
6.990000000000000000e+02,5.218950038069009034e-01,1.549887894284121548e-01
7.000000000000000000e+02,5.452083168460777340e-01,1.657580614917271711e-01
7.010000000000000000e+02,5.647835793286886119e-01,1.755887642801048920e-01
7.020000000000000000e+02,5.832285229852759434e-01,1.817873380151274476e-01
7.030000000000000000e+02,6.000732041416592111e-01,1.830433439313644273e-01
7.040000000000000000e+02,6.164050277949970624e-01,1.776979743863445205e-01
7.050000000000000000e+02,6.343160466461876812e-01,1.676637375489673787e-01
7.060000000000000000e+02,6.475375721322977896e-01,1.513968148791629276e-01
7.070000000000000000e+02,6.601668951292491982e-01,1.337781579913391028e-01
7.080000000000000000e+02,6.713701028273343363e-01,1.146598394725845266e-01
7.090000000000000000e+02,6.819778756313501500e-01,9.931867850001863118e-02
7.100000000000000000e+02,6.921121307674193979e-01,8.472688087870561269e-02
7.110000000000000000e+02,7.011127520291431381e-01,7.313238238656943890e-02
7.120000000000000000e+02,7.088403292786733534e-01,6.619911806303241386e-02
7.130000000000000000e+02,7.155949190434282015e-01,6.336211387530781003e-02
7.140000000000000000e+02,7.217184318101559359e-01,6.268402322503534296e-02
7.150000000000000000e+02,7.265718976023758380e-01,6.087916413899444046e-02
7.160000000000000000e+02,7.316617180274371801e-01,6.116001862972128555e-02
7.170000000000000000e+02,7.262021416096277049e-01,6.152717967194495235e-02
7.180000000000000000e+02,7.210160819088148321e-01,6.084424227633939558e-02
7.190000000000000000e+02,7.097761419309291941e-01,6.175742706735601328e-02
7.200000000000000000e+02,7.344387724422299923e-01,6.156099381585657809e-02
7.210000000000000000e+02,7.373545238720103923e-01,6.666546892863436935e-02
7.220000000000000000e+02,7.507939118311862670e-01,7.351672591933787471e-02
7.230000000000000000e+02,7.506207339039285831e-01,8.134600683673856580e-02
7.240000000000000000e+02,7.532044245109557057e-01,9.036625811695854493e-02
7.250000000000000000e+02,7.475582486911992453e-01,1.005497434561171410e-01
7.260000000000000000e+02,7.544473932496855717e-01,1.116600341766167820e-01
7.270000000000000000e+02,7.498734773127964104e-01,1.232784087365096648e-01
7.280000000000000000e+02,7.398989246822844645e-01,1.344383813642456571e-01
7.290000000000000000e+02,7.444803326321439707e-01,1.438452746193045750e-01
7.300000000000000000e+02,7.591444594877142515e-01,1.513069430333616183e-01
7.310000000000000000e+02,7.612507401859577305e-01,1.557595722369396196e-01
7.320000000000000000e+02,7.546440726516924213e-01,1.572956028205068080e-01
7.330000000000000000e+02,7.650978565272414933e-01,1.563898276161784784e-01
7.340000000000000000e+02,7.672675319802571003e-01,1.530841621692807242e-01
7.350000000000000000e+02,7.677023449881702488e-01,1.481859938991497150e-01
7.360000000000000000e+02,7.677581582477085442e-01,1.405340014215620825e-01
7.370000000000000000e+02,7.668012923260519864e-01,1.309629387007306689e-01
7.380000000000000000e+02,7.681528875244766352e-01,1.223917687203890242e-01
7.390000000000000000e+02,7.687854049809071943e-01,1.151823758088438565e-01
7.400000000000000000e+02,7.684514730512123082e-01,1.075627751876111760e-01
7.410000000000000000e+02,7.687396882881513127e-01,1.000545765211580396e-01
7.420000000000000000e+02,7.692919795314246967e-01,9.480608385200595123e-02
7.430000000000000000e+02,7.694774077012282998e-01,9.228573272530554705e-02
7.440000000000000000e+02,7.696543372119364346e-01,8.977514616355039556e-02
7.450000000000000000e+02,7.697662299255740859e-01,8.838008539795352836e-02
7.460000000000000000e+02,7.697194224212257074e-01,8.692780238958569550e-02
7.470000000000000000e+02,7.696539674660045627e-01,8.430562726104844085e-02
7.480000000000000000e+02,7.695838002653249132e-01,8.091875461526108759e-02
7.490000000000000000e+02,7.690538281868252168e-01,7.858376409792257322e-02
7.500000000000000000e+02,7.685870225475611717e-01,7.829685740045994047e-02
7.510000000000000000e+02,7.685124286399426241e-01,7.699897611807823838e-02
7.520000000000000000e+02,7.683624370713119101e-01,7.954919956552120031e-02
7.530000000000000000e+02,7.681236535239365226e-01,8.331556840947498821e-02
7.540000000000000000e+02,7.678036384418632787e-01,8.852637796701957884e-02
7.550000000000000000e+02,7.673974424761385027e-01,9.412741150143080771e-02
7.560000000000000000e+02,7.667575824122163652e-01,1.005818305980991229e-01
7.570000000000000000e+02,7.660622482958678869e-01,1.060005507894972998e-01
7.580000000000000000e+02,7.653733127969108985e-01,1.122335299833579075e-01
7.590000000000000000e+02,7.639990144509981596e-01,1.180135324375300165e-01
7.600000000000000000e+02,3.501083557668299706e-01,1.233340704318679759e-01
7.610000000000000000e+02,2.625253954638934184e-01,1.261021711778097520e-01
7.620000000000000000e+02,5.867009716248119400e-01,1.296122874210041409e-01
7.630000000000000000e+02,4.386501538401875733e-01,1.331664391092984012e-01
7.640000000000000000e+02,4.547086623850371545e-01,1.349169961813035390e-01
7.650000000000000000e+02,5.997884828965814874e-01,1.379072093251053344e-01
7.660000000000000000e+02,6.176905153085122668e-01,1.402239230155062355e-01
7.670000000000000000e+02,6.645272407913840329e-01,1.411488486483242488e-01
7.680000000000000000e+02,7.052691970714206615e-01,1.426803646779978563e-01
7.690000000000000000e+02,7.363485032355504556e-01,1.450040208428922117e-01
7.700000000000000000e+02,7.459503372276630184e-01,1.472307921652812601e-01
7.710000000000000000e+02,7.539445641803390608e-01,1.511769262496853172e-01
7.720000000000000000e+02,7.531571224460175129e-01,1.554970849705665514e-01
7.730000000000000000e+02,7.529496259820135373e-01,1.591582732992410099e-01
7.740000000000000000e+02,7.520390705463344538e-01,1.610287567642831041e-01
7.750000000000000000e+02,7.516730274513659937e-01,1.648865208180304853e-01
7.760000000000000000e+02,7.507297934268567507e-01,1.677220460985216766e-01
7.770000000000000000e+02,7.498403445592621841e-01,1.708719764128463214e-01
7.780000000000000000e+02,7.489477356189829793e-01,1.746658871136892444e-01
7.790000000000000000e+02,7.478494651345237720e-01,1.814161272106786238e-01
7.800000000000000000e+02,7.467783988131315720e-01,1.859813770952953027e-01
7.810000000000000000e+02,7.457162367565184358e-01,1.915888811855729901e-01
7.820000000000000000e+02,7.446549372167747816e-01,1.971618890786213385e-01
7.830000000000000000e+02,7.435481665311505228e-01,2.024487474733679127e-01
7.840000000000000000e+02,7.424425784348683832e-01,2.067404179255721286e-01
7.850000000000000000e+02,7.412049694753785056e-01,2.103356826454780559e-01
7.860000000000000000e+02,7.399123877439387487e-01,2.155617748764349084e-01
7.870000000000000000e+02,7.380949929684570421e-01,2.199578802655384746e-01
7.880000000000000000e+02,7.362113965541643434e-01,2.228962706613719091e-01
7.890000000000000000e+02,7.345207864053886482e-01,2.251905491674627002e-01
7.900000000000000000e+02,7.329212146708486975e-01,2.267281779282559750e-01
7.910000000000000000e+02,7.317552618326491620e-01,2.273117282899893010e-01
7.920000000000000000e+02,7.314247887169189610e-01,2.236783188041042980e-01
7.930000000000000000e+02,7.284844521145688034e-01,2.200143787771305370e-01
7.940000000000000000e+02,7.298525857200339750e-01,2.148118225119579061e-01
7.950000000000000000e+02,7.306767710495214452e-01,2.080596990861952045e-01
7.960000000000000000e+02,7.263422056433738172e-01,1.990230002951030863e-01
7.970000000000000000e+02,7.255697415231082692e-01,1.907923857087706065e-01
7.980000000000000000e+02,7.250602200006558418e-01,1.830690268337558657e-01
7.990000000000000000e+02,7.239806226206109141e-01,1.749306644752067208e-01
8.000000000000000000e+02,7.213685250529140447e-01,1.700820274473646698e-01
8.010000000000000000e+02,7.203165905028294791e-01,1.673438276921700441e-01
8.020000000000000000e+02,7.211938945361565656e-01,1.682309796834467464e-01
8.030000000000000000e+02,7.194081963351159903e-01,1.683996269100209719e-01
8.040000000000000000e+02,7.188190057125797283e-01,1.682047285514605417e-01
8.050000000000000000e+02,7.181731454583848429e-01,1.661666058782302058e-01
8.060000000000000000e+02,7.177692496823725454e-01,1.644545056982157083e-01
8.070000000000000000e+02,7.171082149703155162e-01,1.573501287902332735e-01
8.080000000000000000e+02,7.159601544990064070e-01,1.457935232242549006e-01
8.090000000000000000e+02,7.153626058179192171e-01,1.324735502474036763e-01
8.100000000000000000e+02,7.108317228768320506e-01,1.199035685773190557e-01
8.110000000000000000e+02,7.091813526847454696e-01,1.120941248606848323e-01
8.120000000000000000e+02,7.089038112695801308e-01,1.189364077602351188e-01
8.130000000000000000e+02,7.063345304231807287e-01,1.446927678590292643e-01
8.140000000000000000e+02,6.944026010542609928e-01,1.835401640464063289e-01
8.150000000000000000e+02,6.870380469930045253e-01,2.309525227785521051e-01
8.160000000000000000e+02,6.823204237612938705e-01,2.848427175431621494e-01
8.170000000000000000e+02,6.724916854132748645e-01,3.403361671445853109e-01
8.180000000000000000e+02,6.601719719919804108e-01,3.974884956088843291e-01
8.190000000000000000e+02,6.788452966920018872e-01,4.550262347859015954e-01
8.200000000000000000e+02,6.718013276555689917e-01,5.162440602050248906e-01
8.210000000000000000e+02,6.900908864694711431e-01,5.856016485701531771e-01
8.220000000000000000e+02,6.806173938455417627e-01,6.700697098515991934e-01
8.230000000000000000e+02,6.332715670527866436e-01,7.833851440635023478e-01
8.240000000000000000e+02,6.749197578433180356e-01,9.407430430948261479e-01
8.250000000000000000e+02,6.784302961826755851e-01,1.161722997460359785e+00
8.260000000000000000e+02,6.650043938901153417e-01,1.470942392728985082e+00
8.270000000000000000e+02,6.704707224919379538e-01,1.884933509959886289e+00
8.280000000000000000e+02,6.454386339271865891e-01,2.423682436506544580e+00
8.290000000000000000e+02,6.385960481274899347e-01,3.107925565324233474e+00
8.300000000000000000e+02,6.483425484041529518e-01,3.947409222681773855e+00
8.310000000000000000e+02,6.420624406859325450e-01,4.941221789479630644e+00
8.320000000000000000e+02,6.266682080923172693e-01,6.105296764137007060e+00
8.330000000000000000e+02,6.266915390586502710e-01,7.409267436593827583e+00
8.340000000000000000e+02,6.109173047981532045e-01,8.821398235443338010e+00
8.350000000000000000e+02,6.041640249607100888e-01,1.029758005319304104e+01
8.360000000000000000e+02,5.864500759285482534e-01,1.179277973466404639e+01
8.370000000000000000e+02,5.705100530277321669e-01,1.324550397610106423e+01
8.380000000000000000e+02,5.512271661711087845e-01,1.462182418091794567e+01
8.390000000000000000e+02,5.304910528069223252e-01,1.587401759841050541e+01
8.400000000000000000e+02,5.066572657451910988e-01,1.693226604509326094e+01
8.410000000000000000e+02,4.802590607443329440e-01,1.777024786685869273e+01
8.420000000000000000e+02,4.532623319215480784e-01,1.834812719206408715e+01
8.430000000000000000e+02,4.247766089702521008e-01,1.865331934309697104e+01
8.440000000000000000e+02,3.942437863109025664e-01,1.868053804962087483e+01
8.450000000000000000e+02,3.633065014439433860e-01,1.842206126451202408e+01
8.460000000000000000e+02,3.317098417343029015e-01,1.792363263284459762e+01
8.470000000000000000e+02,3.007083106304611619e-01,1.719681806266508062e+01
8.480000000000000000e+02,2.703287092199382347e-01,1.628752617554583892e+01
8.490000000000000000e+02,2.409643886392665302e-01,1.524276557100204421e+01
8.500000000000000000e+02,2.129996222067492562e-01,1.408197926519399346e+01
8.510000000000000000e+02,1.864199775574743312e-01,1.285598293982575591e+01
8.520000000000000000e+02,1.619807122906083419e-01,1.161174845795882149e+01
8.530000000000000000e+02,1.398397309256012022e-01,1.038392862874007072e+01
8.540000000000000000e+02,1.197627227406615341e-01,9.199509026622513019e+00
8.550000000000000000e+02,1.018265001850394008e-01,8.068231036990862748e+00
8.560000000000000000e+02,8.599102206660479142e-02,7.017294585385510430e+00
8.570000000000000000e+02,7.209430973901626016e-02,6.037273974931387954e+00
8.580000000000000000e+02,6.006637464423113248e-02,5.150886149749067222e+00
8.590000000000000000e+02,4.972631132501575957e-02,4.359413266458891378e+00
8.600000000000000000e+02,4.096467980452901669e-02,3.662340707757399727e+00
8.610000000000000000e+02,3.364694967276113391e-02,3.057030086455635232e+00
8.620000000000000000e+02,2.751501671065932977e-02,2.538839148930355893e+00
8.630000000000000000e+02,2.233101445387187384e-02,2.085228506336023191e+00
8.640000000000000000e+02,1.803249133178410832e-02,1.697409269499203122e+00
8.650000000000000000e+02,1.453030405707300167e-02,1.375675197857401333e+00
8.660000000000000000e+02,1.169671353291814458e-02,1.110301110491922261e+00
8.670000000000000000e+02,9.390017700546770402e-03,8.919897591363032952e-01
8.680000000000000000e+02,7.554765554240980112e-03,7.167150078128980972e-01
8.690000000000000000e+02,6.074452656064720929e-03,5.731510784137709980e-01
8.700000000000000000e+02,4.883931059569816303e-03,4.575338101984895434e-01
8.710000000000000000e+02,3.932483104224549636e-03,3.641585990369103354e-01
8.720000000000000000e+02,3.176115889960336083e-03,2.896444005809171163e-01
8.730000000000000000e+02,2.573740805174587736e-03,2.305271078956821484e-01
8.740000000000000000e+02,2.099836877499846113e-03,1.845066747581318167e-01
8.750000000000000000e+02,1.720963689874367968e-03,1.471512418561188584e-01
8.760000000000000000e+02,1.418178206512039647e-03,1.176043164706349203e-01
8.770000000000000000e+02,1.181308520097811227e-03,9.424175016810475147e-02
8.780000000000000000e+02,9.895926529176878733e-04,7.622123567403488176e-02
8.790000000000000000e+02,8.379723209290333274e-04,6.199258345996240538e-02
8.800000000000000000e+02,7.196260347515671951e-04,5.032269604635405263e-02
8.810000000000000000e+02,6.326927018730174081e-04,4.047879479780528561e-02
8.820000000000000000e+02,5.602049153488674682e-04,3.289384671203949423e-02
8.830000000000000000e+02,5.004423597513549303e-04,2.707828344528941111e-02
8.840000000000000000e+02,4.468228756541001590e-04,2.246006557102061402e-02
8.850000000000000000e+02,4.150410472800664173e-04,1.942759414187495565e-02
8.860000000000000000e+02,3.872604155411332977e-04,1.687150188209620219e-02
8.870000000000000000e+02,3.646021376279584580e-04,1.459628775276837834e-02
8.880000000000000000e+02,3.458889701420774366e-04,1.454707093291542248e-02
8.890000000000000000e+02,3.261424089736578592e-04,1.403485919869781710e-02
8.900000000000000000e+02,3.269235012425592457e-04,1.316820090792645594e-02
8.910000000000000000e+02,3.182601461555489863e-04,1.262840713101484776e-02
8.920000000000000000e+02,3.102830880042592183e-04,1.498141609737972148e-02
8.930000000000000000e+02,3.039109918660350064e-04,1.613602532011254587e-02
8.940000000000000000e+02,2.964686493269286325e-04,1.353127316756828728e-02
8.950000000000000000e+02,2.971999474353140660e-04,1.269287161752571599e-02
